"Total Time (s)","Cycle Elapsed Time (s)","Total Cycles","Elapsed Cycles","Step","Total Cycle Count(Linear Waveform)","Total Cycle Count(Rotary Waveform)","Position(Linear:Position) (mm)","Load(Linear:Load) (N)","Displacement(Linear:Digital Position) (mm)","Load(Linear:Missus) (N)","Rotation(Rotary:Rotation) (deg)","Torque(Rotary:Torque) (N·m)","Rotary Displacement(Rotary:Digital Rotation) (deg)",
43.438,0,33,13,4,33,1,-0.0845837666474658,0.0343509018421173,0.00651748836820433,-0.826391279697418,24.9908816814423,-0.00738594681024551,24.9943149089813,
43.449,0.0109999999999957,33,13,4,33,1,-0.0867522487663768,0.0131567940115929,0.00434931358212214,-0.823443084955215,24.9913913011551,-0.00548067037016153,24.9948191642761,
43.452,0.0139999999999958,33,13,4,33,1,-0.0868719423408735,-0.0321967527270317,0.00423012292160531,-0.824652016162872,24.990286231041,-0.00445758923888206,24.993714094162,
43.459,0.0210000000000008,33,13,4,33,1,-0.0867401788260914,-0.0660456717014313,0.00436199819531357,-0.829528346657753,24.990286231041,-0.00439952127635479,24.993714094162,
43.47,0.0319999999999965,33,13,4,33,1,-0.0856545547526449,0.0186190009117126,0.00544862809892828,-0.825287476181984,24.9922978878021,-0.00481370370835066,24.9957311153412,
43.473,0.0349999999999966,33,13,4,33,1,-0.084850199403395,-0.041457824409008,0.00625222907824963,-0.829009786248207,24.9899482727051,-0.00606761313974857,24.9933815002441,
43.48,0.0420000000000016,33,13,4,33,1,-0.0821103508982893,0.00590644776821136,0.00899042914700043,-0.825116038322449,24.9902808666229,-0.00625692773610353,24.993714094162,
43.491,0.0529999999999973,33,13,4,33,1,-0.0744703301547301,-0.0553186982870102,0.0166291926178445,-0.829703137278557,24.9903237819672,-0.00542504712939262,24.9937570095062,
43.502,0.0640000000000001,33,13,4,33,1,-0.0641865175141697,-0.0348594039678574,0.0269120553265391,-0.823363736271858,24.9901521205902,-0.00550865661352873,24.9935853481293,
43.513,0.0749999999999957,33,13,4,33,1,-0.0506830483024829,-0.0254930928349495,0.0404123953169487,-0.826340168714523,24.9912089109421,-0.00497256405651569,24.9946367740631,
43.523,0.0850000000000009,33,13,4,33,1,-0.0362273949127269,0.0339709222316742,0.0548636342618895,-0.829514861106873,24.9899965524673,-0.00540381297469139,24.9934351444244,
43.534,0.0959999999999965,33,13,4,33,1,-0.0180436107776461,0.0124704092741013,0.073044261243817,-0.82242488861084,24.9917131662369,-0.00566078815609217,24.9951410293579,
43.544,0.106000000000002,33,13,4,33,1,0.000680107607469522,-0.0389209017157555,0.0917651856924756,-0.828355774283409,24.9920296669006,-0.00592384021729231,24.9954521656036,
43.555,0.116999999999997,33,13,4,33,1,0.0230545917734418,0.0528581440448761,0.114134193719119,-0.826113671064377,24.9910640716553,-0.00630945432931185,24.9944972991943,
43.566,0.128,33,13,4,33,1,0.0476111367411462,0.0850167125463486,0.138685625766927,-0.822250694036484,24.9912840127945,-0.00558067113161087,24.9947118759155,
43.577,0.138999999999996,33,13,4,33,1,0.0747799017713089,0.129980966448784,0.165851205719235,-0.826895609498024,24.9929738044739,-0.00576043967157602,24.9964070320129,
43.587,0.149000000000001,33,13,4,33,1,0.10100313226643,0.172199681401253,0.192068680684675,-0.824567601084709,24.9920564889908,-0.00566898379474878,24.9954736232758,
43.598,0.159999999999997,33,13,4,33,1,0.131478977115759,0.258296728134155,0.222539189106559,-0.82265667617321,24.9930113554001,-0.00366135500371456,24.9964392185211,
43.608,0.170000000000002,33,13,4,33,1,0.161989327465671,0.202719122171402,0.253041995794632,-0.829011127352715,24.9943524599075,-0.00601338688284159,24.9977803230286,
43.619,0.180999999999997,33,13,4,33,1,0.195742608137307,0.303987413644791,0.286788207784335,-0.823590680956841,24.9934726953506,-0.00615555327385664,24.9969005584717,
43.63,0.192,33,13,4,33,1,0.230974931468404,0.471148639917374,0.322014105048527,-0.823665484786034,24.9963426589966,-0.0040403101593256,24.9997651576996,
43.641,0.202999999999996,33,13,4,33,1,0.268411834980563,0.508910976350307,0.359443884005538,-0.828654542565346,24.9941700696945,-0.00411320943385363,24.9975979328156,
43.651,0.213000000000001,33,13,4,33,1,0.302570687997528,0.716341659426689,0.393595388944481,-0.821878835558891,24.9969166517258,-0.00500651076436043,25.0003445148468,
43.662,0.223999999999997,33,13,4,33,1,0.341819004561822,0.877491198480129,0.432834988395079,-0.825194492936134,24.9949371814728,-0.00641813967376947,24.9983596801758,
43.672,0.234000000000002,33,13,4,33,1,0.377780162296355,1.1355048045516,0.468789720063922,-0.826238542795181,24.9959081411362,-0.00516150612384081,24.9993467330933,
43.683,0.244999999999997,33,13,4,33,1,0.417625158593831,1.30356382578611,0.508627116835762,-0.821250379085541,24.998225569725,-0.00468275975435972,25.0016534328461,
43.694,0.256,33,13,4,33.25,1,0.457714571182085,1.56594719737768,0.548709376933614,-0.826701074838638,24.997318983078,-0.00554772559553385,25.0007522106171,
43.705,0.266999999999996,33,13,4,33.25,1,0.4979094001701,1.93512067198753,0.588894902076302,-0.82600474357605,24.9965250492096,-0.00514728017151356,24.9999582767487,
43.715,0.277000000000001,33,13,4,33.25,1,0.533763213667189,2.25506909191608,0.624741842472694,-0.821459516882896,24.9978071451187,-0.00437989365309477,25.0012457370758,
43.716,0.277999999999999,33,13,4,33.25,1,0.537384586908276,2.25119013339281,0.628362377529519,-0.820822939276695,24.9972224235535,-0.00542385969310999,25.0006556510925,
43.726,0.287999999999997,33,13,4,33.25,1,0.574238249671691,2.43379920721054,0.665208831917784,-0.828435719013214,24.9974209070206,-0.00611445866525173,25.0008487701416,
43.736,0.298000000000002,33,13,4,33.25,1,0.609884247854328,2.92162597179413,0.700847677602614,-0.823045074939728,25.0014281272888,-0.0055303331464529,25.0048613548279,
43.747,0.308999999999998,33,13,4,33.25,1,0.648886918782073,3.43938078731298,0.739843475434911,-0.823246464133263,25.0013798475266,-0.00498192384839058,25.0048077106476,
43.758,0.32,33,13,4,33.25,1,0.68783611316883,3.75923793762922,0.778784120345534,-0.828409120440483,24.9990516901016,-0.00498502049595118,25.0024795532227,
43.769,0.330999999999996,33,13,4,33.25,1,0.725855195722022,4.1055204346776,0.816794485782982,-0.822858884930611,25.0009024143219,-0.00510266982018948,25.004335641861,
43.779,0.341000000000001,33,13,4,33.25,1,0.758977905832776,4.4705169275403,0.849911999169087,-0.824758484959602,25.0017017126083,-0.00495952554047108,25.0051188468933,
43.79,0.351999999999997,33,13,4,33.25,1,0.793224573253254,5.03329373896122,0.884149837708826,-0.828531533479691,25.0006663799286,-0.00536637380719185,25.0040996074677,
43.8,0.362000000000002,33,13,4,33.25,1,0.823724585922829,5.36805484443903,0.914643703700376,-0.821955129504204,25.0013154745102,-0.00486273784190416,25.0047433376312,
43.811,0.372999999999998,33,13,4,33.25,1,0.8553445325887,5.82289975136518,0.946258621277152,-0.827467069029808,25.0013154745102,-0.00546863302588463,25.0047433376312,
43.822,0.384,33,13,4,33.25,1,0.885192042051274,6.23897835612297,0.976100542854145,-0.826357901096344,25.0013154745102,-0.00514115672558546,25.0047433376312,
43.833,0.394999999999996,33,13,4,33.25,1,0.91248977662856,6.67799916118383,1.00339179547195,-0.821689143776894,25.00128865242,-0.00521561596542597,25.0047218799591,
43.843,0.405000000000001,33,13,4,33.25,1,0.936254706739538,6.97434600442648,1.02715381989617,-0.82793265581131,25.0013154745102,-0.00552984420210123,25.0047433376312,
43.854,0.415999999999997,33,13,4,33.25,1,0.95998203004583,7.3831956833601,1.0508750523925,-0.825685039162636,25.0013154745102,-0.00513498671352863,25.0047433376312,
43.864,0.426000000000002,33,13,4,33.25,1,0.979225538174162,7.69784022122622,1.07011610186136,-0.82267127931118,25.0013154745102,-0.00489458907395601,25.0047433376312,
43.875,0.436999999999998,33,13,4,33.25,1,0.998589186911816,7.99450557678938,1.08947550380044,-0.828026309609413,25.0013154745102,-0.00523966737091541,25.0047433376312,
43.886,0.448,33,13,4,33.25,1,1.01578181101999,8.17609950900078,1.10666376934771,-0.823728814721107,25.0013154745102,-0.00462629832327366,25.0047433376312,
43.897,0.458999999999996,33,13,4,33.25,1,1.02927555722422,8.52678716182709,1.12015427457194,-0.824008956551552,25.0002425909042,-0.00546891242265701,25.0036704540253,
43.907,0.469000000000001,33,13,4,33.25,1,1.04029999481174,8.56955070048571,1.13117692403853,-0.829868242144585,25.0030481815338,-0.005375687032938,25.0064706802368,
43.918,0.479999999999997,33,13,4,33.25,1,1.04994220071917,8.75107757747173,1.14081778885755,-0.823815613985062,25.0014227628708,-0.00579741317778826,25.0048613548279,
43.928,0.490000000000002,33,13,4,33.25,1,1.05628685423714,8.70084576308727,1.14716188359257,-0.826167687773705,25.0051563978195,-0.00506059732288122,25.0085735321045,
43.931,0.492999999999995,33,13,4,33.25,1,1.05735515571111,8.88594519346952,1.14823018506831,-0.822576954960823,25.0032144784927,-0.00548237003386021,25.0066530704498,
43.939,0.500999999999998,33,13,4,33.5,1,1.06024054199155,8.87055601924658,1.15111344793814,-0.827049016952515,25.0080639123917,-0.00473377294838429,25.0114917755127,
43.95,0.512,33,13,4,33.5,1,1.06166635956712,8.78224056214094,1.15253915375738,-0.822241231799126,25.008493065834,-0.00594956800341606,25.0119209289551,
43.952,0.513999999999996,33,13,4,33.5,1,1.06171810384816,8.77868756651878,1.15259022748626,-0.823545232415199,25.0068193674088,-0.00553755089640617,25.0102472305298,
43.954,0.515999999999998,33,13,4,33.5,1,1.06161059197265,8.81132110953331,1.15248495078471,-0.825216248631477,25.0087666511536,-0.0054061645641923,25.0121998786926,
43.965,0.527000000000001,33,13,4,33.5,1,1.06008832663351,8.76682065427303,1.15096179137338,-0.822488367557526,25.0100272893906,-0.00626698601990938,25.0134551525116,
43.976,0.537999999999997,33,13,4,33.5,1,1.05605964878714,8.58404394239187,1.14693434286607,-0.828263014554977,25.0082302093506,-0.00589326955378056,25.0116527080536,
43.986,0.548000000000002,33,13,4,33.5,1,1.04987089866452,8.51132441312075,1.14074615152666,-0.824212059378624,25.0109928846359,-0.00540886539965868,25.014420747757,
43.997,0.558999999999998,33,13,4,33.5,1,1.04091176197028,8.19594692438841,1.13178880295679,-0.824154168367386,25.0079351663589,-0.00533282291144133,25.0113844871521,
44.008,0.57,33,13,4,33.5,1,1.02873419805068,7.93038122355938,1.11961526233034,-0.829497873783112,25.0104939937592,-0.00580507330596447,25.0139272212982,
44.019,0.580999999999996,33,13,4,33.5,1,1.01393164563643,7.64034129679203,1.10481472154813,-0.824322924017906,25.0080156326294,-0.00537282321602106,25.0114488601685,
44.029,0.591000000000001,33,13,4,33.5,1,0.998358405183211,7.33018480241299,1.08924326920826,-0.82563154399395,25.0077742338181,-0.00517715234309435,25.0112020969391,
44.04,0.601999999999997,33,13,4,33.5,1,0.979148759942902,6.86397030949593,1.07003965890609,-0.83029642701149,25.0067764520645,-0.00392466317862272,25.0102257728577,
44.05,0.612000000000002,33,13,4,33.5,1,0.959031298730944,6.58051203936338,1.04992398579991,-0.823836177587509,25.0090992450714,-0.00645481050014496,25.0125432014465,
44.061,0.622999999999998,33,13,4,33.5,1,0.935400199670815,6.10313843935728,1.02629975986084,-0.827388912439346,25.0075650215149,-0.00479426234960556,25.010998249054,
44.064,0.625999999999998,33,13,4,33.5,1,0.928556599408355,6.04291912168264,1.01945632722504,-0.823210030794144,25.0114756822586,-0.00439207069575787,25.0149035453796,
44.072,0.634,33,13,4,33.5,1,0.909664125376657,5.71369472891092,1.00056843526882,-0.828192979097366,25.0089383125305,-0.00551489647477865,25.0123715400696,
44.083,0.644999999999996,33,13,4,33.5,1,0.882282460010905,5.22420834749937,0.973190234377334,-0.823215395212173,25.0074791908264,-0.00496094580739737,25.0109124183655,
44.093,0.655000000000001,33,13,4,33.5,1,0.855083967164854,4.74869459867477,0.94599956459541,-0.829105004668236,25.0098663568497,-0.00556802842766047,25.0132942199707,
44.104,0.665999999999997,33,13,4,33.5,1,0.823128464983179,4.31090407073498,0.914049147381623,-0.826605036854744,25.0050008296967,-0.00727165024727583,25.0084233283997,
44.114,0.676000000000002,33,13,4,33.5,1,0.792866163082002,3.94367799162865,0.883792936279515,-0.824638232588768,25.0054460763931,-0.0032148789614439,25.0088739395142,
44.125,0.686999999999998,33,13,4,33.5,1,0.758242924700491,3.56705114245415,0.849177912105229,-0.830181166529655,25.0082677602768,-0.00509824603796005,25.0117063522339,
44.136,0.698,33,13,4,33.5,1,0.721799192871954,3.13737522810698,0.812740382824165,-0.82448236644268,25.0062829256058,-0.00586602836847305,25.0097107887268,
44.147,0.708999999999996,33,13,4,33.5,1,0.684084429276143,2.72367428988218,0.775033330516246,-0.824109092354774,25.0064760446548,-0.0052696792408824,25.0098931789398,
44.157,0.719000000000001,33,13,4,33.5,1,0.649114459508193,2.36751604825258,0.740070122091759,-0.829652473330498,25.007581114769,-0.00565783120691776,25.0110197067261,
44.168,0.729999999999997,33,13,4,33.5,1,0.609743320125626,1.95864215493202,0.700706582235617,-0.824538394808769,25.0036865472794,-0.00407164916396141,25.0071251392365,
44.171,0.732999999999997,33,13,4,33.5,1,0.598845784549165,1.97399966418743,0.689810387745472,-0.827221721410751,25.0051242113113,-0.00268809963017702,25.0085520744324,
44.178,0.740000000000002,33,13,4,33.5,1,0.573134688325875,1.74975115805864,0.664105549966896,-0.828022435307503,25.0025117397308,-0.00585902016609907,25.0059449672699,
44.189,0.750999999999998,33,13,4,33.75,1,0.533179386185237,1.52046140283346,0.624157903231063,-0.828607529401779,25.0021255016327,-0.00558581668883562,25.0055587291718,
44.2,0.762,33,13,4,33.75,1,0.492712620325004,1.22416857630014,0.583699407447669,-0.823037177324295,25.0025868415833,-0.00512632541358471,25.0059986114502,
44.211,0.772999999999996,33,13,4,33.75,1,0.453193847691353,0.956067815423012,0.544188066702138,-0.828261077404022,25.0052100419998,-0.00465328339487314,25.0086486339569,
44.221,0.783000000000001,33,13,4,33.75,1,0.417415387502019,0.815331004559994,0.508415948759769,-0.82656592130661,25.0011706352234,-0.00607960391789675,25.0045931339264,
44.232,0.793999999999997,33,13,4,33.75,1,0.377756860606082,0.664276070892811,0.468767647719382,-0.822526887059212,25.001272559166,-0.00651970040053129,25.004700422287,
44.242,0.804000000000002,33,13,4,33.75,1,0.342530628124481,0.49491785466671,0.433547953063402,-0.830266177654266,24.9976569414139,-0.00518464948982,25.0010848045349,
44.253,0.814999999999998,33,13,4,33.75,1,0.303576041380142,0.478676520287991,0.394600099716208,-0.825701430439949,25.0002962350845,-0.00360566191375256,25.0037240982056,
44.264,0.826000000000001,33,13,4,33.75,1,0.265980608143032,0.251276418566704,0.357012405706866,-0.823443830013275,24.9979251623154,-0.0075650867074728,25.0013530254364,
44.275,0.836999999999996,33,13,4,33.75,1,0.229417043041616,0.23039523512125,0.320457250387177,-0.829609781503677,24.9995774030685,-0.00470362138003111,25.0030052661896,
44.285,0.847000000000001,33,13,4,33.75,1,0.197355453907942,0.1505296677351,0.288401221195717,-0.823950245976448,24.997673034668,-0.00559450127184391,25.001106262207,
44.296,0.857999999999997,33,13,4,33.75,1,0.163191208533394,0.192884355783463,0.254243457769208,-0.826358795166016,24.9966484308243,-0.00458511058241129,25.0000762939453,
44.307,0.869,33,13,4,33.75,1,0.131198267185094,0.0777300447225571,0.22225794832157,-0.830855742096901,24.9967610836029,-0.00568258110433817,25.000194311142,
44.318,0.879999999999995,33,13,4,33.75,1,0.100813421862408,-0.0983020290732384,0.191877573296504,-0.823189467191696,24.9968630075455,-0.00687225256115198,25.0002801418304,
44.328,0.890000000000001,33,13,4,33.75,1,0.0742479303291013,-0.0348025932908058,0.165318116689075,-0.827998295426369,24.9968469142914,-0.00499349553138018,25.0002694129944,
44.339,0.900999999999996,33,13,4,33.75,1,0.0475878629905496,0.0870535150170326,0.138664112215919,-0.829521492123604,24.9941968917847,-0.00365162268280983,24.9976301193237,
44.341,0.902999999999999,33,13,4,33.75,1,0.0430567459401277,0.0113071873784065,0.134134196564041,-0.831193178892136,24.9925071001053,-0.00529307872056961,24.9959349632263,
44.349,0.911000000000001,33,13,4,33.75,1,0.0253072002585549,0.0242162495851517,0.116388143312464,-0.823717042803764,24.9960261583328,-0.00642198137938976,24.9994647502899,
44.36,0.921999999999997,33,13,4,33.75,1,0.00261791975648208,0.0268043950200081,0.0937024111115085,-0.828428715467453,24.9950176477432,-0.00606956891715527,24.9984455108643,
44.371,0.933,33,13,4,33.75,1,-0.0173532493088693,-0.0564698129892349,0.0737341477392416,-0.827625617384911,24.9974584579468,-0.0045904191210866,25.0008916854858,
44.382,0.943999999999996,33,13,4,33.75,1,-0.0348363342948363,-0.0322358682751656,0.0562557565898106,-0.823449864983559,24.994969367981,-0.00647488050162792,24.99840259552,
44.392,0.954000000000001,33,13,4,33.75,1,-0.0489999063055567,-0.0438075512647629,0.0420943638502616,-0.829432159662247,24.9953770637512,-0.00637418124824762,24.9988102912903,
44.403,0.964999999999996,33,13,4,33.75,1,-0.0622709732873966,0.0273846089839935,0.0288266496074992,-0.825226753950119,24.9963694810867,-0.00399039126932621,24.9997973442078,
44.413,0.975000000000001,33,13,4,33.75,1,-0.0715326128600385,-0.0526551157236099,0.0195663790635763,-0.825513824820518,24.9954146146774,-0.00573201104998589,24.9988532066345,
44.424,0.985999999999997,33,13,4,33.75,1,-0.0793545767775292,0.0286391004920006,0.0117457841772039,-0.82997128367424,24.9960154294968,-0.0049543334171176,24.9994432926178,
44.427,0.988999999999997,33,13,4,33.75,1,-0.0807670112480085,-0.13408437371254,0.0103342158343462,-0.827862322330475,24.9930274486542,-0.00612740404903889,24.9964606761932,
44.435,0.997,33,13,4,33.75,1,-0.0844469460512215,-0.0051446259021759,0.00665489569788594,-0.824827328324318,24.9955326318741,-0.00523226335644722,24.9989497661591,
44.438,1,33,13,4,34,1,-0.085449254009087,-0.0268770381808281,0.00565309065252934,-0.827772319316864,24.9939393997192,-0.00527405645698309,24.9973726272583,
44.449,0.0109999999999957,34,14,4,34,1,-0.0875760501305309,0.00160373747348785,0.00352654598463047,-0.822306871414185,24.9942988157272,-0.00472764950245619,24.9977266788483,
44.453,0.0150000000000006,34,14,4,34,1,-0.087708288619815,0.00545661896467209,0.00339400015868302,-0.825084894895554,24.9945455789566,-0.00542027410119772,24.9979841709137,
44.459,0.0210000000000008,34,14,4,34,1,-0.0875799058058999,-0.0635581091046333,0.00352308146472797,-0.828390717506409,24.9935156106949,-0.00538830645382404,24.996954202652,
44.47,0.0319999999999965,34,14,4,34,1,-0.0862031503024216,-0.0837352126836777,0.00489832822796265,-0.825242027640343,24.9911767244339,-0.00572702847421169,24.9946045875549,
44.48,0.0420000000000016,34,14,4,34,1,-0.0826602596128656,0.00249594449996948,0.00844102334568705,-0.823376998305321,24.9933815002441,-0.0059827696532011,24.9968147277832,
44.491,0.0529999999999973,34,14,4,34,1,-0.075261302398895,-0.0418247655034065,0.0158384438897744,-0.830139964818954,24.9939608573914,-0.00450566876679659,24.9973833560944,
44.494,0.0559999999999974,34,14,4,34,1,-0.0727555883835845,0.0103926286101341,0.0183443534869975,-0.827187672257423,24.9904257059097,-0.00582793727517128,24.9938642978668,
44.502,0.0640000000000001,34,14,4,34,1,-0.0647020883662211,-0.0198669731616974,0.0263957301023593,-0.823409780859947,24.991375207901,-0.00546397641301155,24.9948191642761,
44.513,0.0749999999999957,34,14,4,34,1,-0.0512000999573934,0.0170860439538956,0.03989523190247,-0.824433639645576,24.9922549724579,-0.00602796208113432,24.9956881999969,
44.523,0.0850000000000009,34,14,4,34,1,-0.0368895373081513,0.0512627884745598,0.0542020227192176,-0.828471407294273,24.9932098388672,-0.00457619316875935,24.9966430664063,
44.526,0.088000000000001,34,14,4,34,1,-0.0320758942480863,-0.153678469359875,0.0590149114160362,-0.827880278229713,24.9933439493179,-0.00592765863984823,24.996771812439,
